# R.A.[deg]    Dec.[deg]    flux[Jy]
   15.6360   -8.3548    2.2219
   10.9907  -13.4505    5.7881
   13.6684  -10.0708    0.6806
   15.1274  -13.2243    3.5794
    8.1473   -6.0978    4.6955
    7.9252  -16.7993    3.7251
    4.0193   -6.1325    5.6110
    9.6062   -7.7586    2.8640
   11.5995   -6.5211    4.2485
    6.6559  -12.6038    5.5722
   10.3241   -9.1129         0
    8.3962  -10.1847         0
    8.0574  -16.7988    1.7988
   13.5070   -7.8185    5.2396
   13.6735   -8.0083    5.6084
   15.1674  -13.3440    2.8066
    5.1177   -4.4199    8.9373
    9.3874  -17.9431    8.3990
   12.9479  -11.8495    4.4687
    4.1794  -11.7587   14.9766
   18.6703  -13.2117    3.9041
   11.0496  -12.9878    7.9502
    7.5474   -7.8263    4.8109
   14.6477  -13.9321         0
   11.6971   -9.6900   10.6395
   10.4916  -11.9130    1.8093
    6.9392  -10.5776    5.2212
    2.0557   -1.3044   10.7624
    5.6639  -12.4384    6.9282
    7.0947   -6.0152    6.1130
   12.0364   -9.8296    4.5637
   12.7652   -9.8583    5.7356
    6.4661  -18.5617   10.6705
   13.7268   -5.4065    3.6171
   13.0034   -9.3046    4.3354
    9.4352  -11.9531    3.6333
    5.7195   -9.8316    3.7639
   14.0142  -10.4905    4.4826
    9.4163   -1.7559    6.8566
    5.4393  -14.9808    5.2646
   11.1353  -12.5269    2.7178
   12.3561   -8.8174    9.9559
    3.4227   -1.6563    2.3913
   18.3988   -8.8420    4.0087
    0.3293   -4.9999    5.2403
    2.6414   -6.6132         0
   15.5081   -6.7647    1.9728
   11.4633   -4.2061    1.1190
    8.0699    0.3105         0
   10.0522   -9.3359   11.3990
   13.2909  -11.3051    2.8089
    6.0939   -9.1575    7.5202
   14.1767  -11.3643    5.0516
   13.1379  -20.4010    2.0176
    9.7968  -10.5218    4.8788
   10.8605   -9.2447    6.2142
    7.1706  -11.6483    1.5716
    6.1452  -10.9759    8.5943
    8.2508   -4.4369    8.5905
   14.6283   -9.6287    4.7079
    8.9213  -10.1345    6.8430
    7.9677  -12.9761    1.3442
    5.5933  -12.5076    6.7156
    4.8995  -10.4541    4.6151
   10.0995   -9.4243    9.8256
   14.6811   -8.2513    2.1288
   15.5417   -2.6414   11.0345
   12.5208   -3.8955    5.0603
    8.6093  -15.3874    6.3365
    8.3458   -2.0954    9.3486
   11.6454  -14.4347    8.3089
   14.2185    1.5705    2.3724
   14.3841   -9.1032    2.2543
    0.4648  -11.9743    2.2555
    9.7909  -19.0959    8.2243
    5.6495  -11.7909    4.5929
    7.8794   -3.0604    3.6659
   17.8085  -11.8570    5.2476
    6.5011  -12.0287    8.1073
    2.4229  -15.9085    4.5233
   10.7966  -15.2826    5.9278
    9.4399  -12.6041         0
    8.1300   -8.3799    2.9972
   13.9576  -19.2803    1.8002
   12.5476   -6.9969    3.0825
   11.6916  -12.1650    2.7141
    8.7537   -6.3805    3.7337
   11.5754  -10.0196    3.5260
    8.6891  -11.9921    6.9732
   10.8374   -7.7376    9.3082
   12.5947   -7.7268    0.3949
   11.5285   -0.8870   10.2585
    6.9723  -15.8554    8.8492
    7.5834  -13.1591    5.2809
    5.3193  -15.5055    9.7403
   14.4878  -12.5656    5.7344
    9.8828  -12.2743    1.9392
    7.0435  -11.9864    8.3835
   13.0499  -12.1102   11.6974
    7.7012  -12.2967    2.6773
   12.0070  -11.0671    1.9956
   16.8249   -8.0729    8.4150
   14.2199   -4.9883    4.9281
    9.2793  -11.6423    0.9085
    9.4877   -1.7766    8.7089
   18.7171   -6.0726    4.5378
    9.2314   -4.5115    2.6144
   11.3553  -14.4109    3.2553
   11.4669  -18.2268    3.5070
   14.1618   -8.5288    7.8123
   10.9688   -8.4505    1.5328
   11.6481  -17.6512    6.4077
   11.4497  -16.6864    8.0132
   22.1005   -8.4157    2.4205
   13.9423   -5.3360    6.0032
    6.0558   -3.8964    0.0396
    4.5215  -14.1322    7.0906
    2.7332   -7.2792    1.6334
   18.2804   -7.2359    7.4191
    6.3148  -10.1443    6.3007
   14.4646  -14.7334    3.7658
   12.4022  -14.9701    0.5604
    3.1297   -6.6677    8.9948
   19.1029  -17.5693    5.4581
   12.4853  -11.3272   10.0319
   18.1906   -9.3679    5.0257
   11.5419   -5.0816         0
   10.8080  -11.6162   10.0702
    5.4131  -16.2662    4.1258
   10.1692   -8.4338    7.7732
   10.6171  -13.2385    2.8333
    3.1553   -2.0013    6.8355
    9.9149  -13.9057    7.5050
   10.7346   -9.2305    8.0393
    6.7548   -0.8091    6.4971
   11.8477   -5.2565    4.8776
    4.5432  -10.0761    5.4334
    7.4181   -7.8438    5.9070
   10.4743    0.8124    2.7846
    7.2771   -3.6971    6.6513
   11.8981  -15.9778    1.8066
    8.3674   -9.1688         0
    6.0665   -5.2082    5.4997
   14.1922  -16.9068    5.5932
   12.7002   -8.7010    5.6622
   12.5711  -10.3067   10.3185
   13.0830   -8.7023    8.6986
   14.5424  -13.6228   10.5914
   14.4589  -18.2214    5.6611
   10.1516  -14.8259    7.7259
    7.9738   -1.5630    3.2265
    9.5020  -10.5838    4.3071
   15.5704  -14.2819         0
    4.6096   -3.3946    5.2095
    7.4602   -5.8646    7.7809
   14.6949  -13.8817    1.8255
   13.8070   -5.1627    4.3325
    7.7701   -5.0032    2.8278
    9.0693  -13.4819    2.5748
    9.2989   -7.5705    7.7072
    8.7607  -11.6683    5.2018
   -0.9946   -4.3714    7.2188
    8.0770  -15.6793    6.1903
   11.3908  -11.8384    7.8074
   21.0321   -6.3064         0
    3.4182  -10.3579    1.9336
    7.1401   -7.4062    4.4843
    8.2654   -2.1810    6.0437
    5.7598  -11.9186    8.4453
    6.9680  -14.9312    3.0811
    1.3409   -2.9697    3.1852
    9.4941  -11.9683    4.1445
    7.6667   -8.5677    7.0857
   12.4074  -12.6188    5.3193
   10.2583  -17.0596    8.3771
   14.7962  -14.2630    2.6842
   17.2933   -4.0949    6.2334
   10.5483  -11.8681    6.1616
    4.4288  -10.6758    0.0680
   11.0986   -8.6498    5.8892
   16.2922   -4.7043   10.2191
    9.5704   -9.3142    1.4066
   11.7443  -11.1632    3.0888
    5.6516  -13.8361    1.9497
   16.7913   -7.3773    8.3872
   11.8172  -19.3974    3.3305
    8.1004  -15.2874    7.2541
    2.4669   -6.6865    0.0657
    6.9057   -7.9891         0
    5.3777  -15.7458    7.9921
    7.7835   -7.5834    6.7799
   11.5606   -7.8874    5.8402
   13.7321  -15.3294    7.9012
   10.7003  -10.3230    5.2028
   10.3767   -2.7906    5.4197
   11.6858  -12.2208    2.3753
   21.9394  -16.0640    5.0285
   11.4972   -9.2856    1.6990
   10.6335  -12.5207    2.3279
   17.1003  -11.6142    3.5683
   10.4030   -8.1543    5.4162
    6.9716  -10.2467    9.8085
   14.1935  -11.7165    6.1326
    8.3895  -14.6428    6.2184
   10.9095  -13.6911    6.6298
   13.9431  -14.6058    8.6110
   13.6358  -12.7232    6.7413
    2.7850   -2.0776    5.1910
   -0.6292   -9.3356    3.7009
    6.8423  -12.4721    6.7917
   17.4336  -10.5754         0
   11.0578   -8.8960    5.1252
    9.3171   -8.7577    7.8297
    9.2985   -8.5658    4.3161
   14.6717   -5.0926    6.7305
   11.4872  -11.5475    5.5173
   12.1411   -8.4020    6.7551
    0.5927  -12.7838    3.5196
    9.2168  -18.3653   10.0138
   10.0863  -12.5737    6.1898
    6.1299   -3.6191    5.4230
    9.8967  -11.5957    1.4282
    7.2896   -5.4015    4.4206
   13.9146   -7.2918    0.6632
    7.4313  -12.6876    4.1342
   15.8711   -1.3899    1.3126
    9.8081   -6.0696    4.8081
   14.0299   -5.9384    5.4566
   20.2819  -14.0934    3.5464
   10.3007  -12.9118    9.8987
   16.7257   -7.0910    9.1067
    5.1739   -4.6011    9.2417
   18.2051  -10.1187    6.7722
    4.5621   -2.2963    7.3400
    9.7057  -10.5751    3.0283
    8.5292   -6.7688    5.3954
    4.8288   -9.9848    1.6327
    4.1138   -5.0772    5.7195
   12.9087  -11.4719    8.4265
    3.7486  -10.1412    1.6974
    3.9669  -16.7874    4.3734
   15.0799   -8.6399    0.6018
   10.0076   -9.5962    6.8188
   11.7086   -7.6236    8.6925
    5.9440   -8.4781    8.4304
    9.1144  -13.0120    1.9230
   11.3812   -7.0118    2.8729
   10.7536    1.7457    4.6935
   18.0464  -12.8866    3.8146
    7.1916   -5.8047    3.4173
    9.3252  -12.5999         0
   13.7450  -14.0879    6.9100
   14.2664  -15.0527    4.2967
    1.1182   -7.4108    7.0801
    8.2365   -9.8504    5.7936
    6.9548   -6.0684         0
    9.9279  -10.8551    4.0961
   12.3183  -15.2891    7.3583
   12.0017  -10.8926    8.1355
   15.1340  -10.3320    4.0483
   12.0146   -7.2442    6.5615
   11.4195  -15.4469    5.7139
   14.2552  -18.2941    7.7656
   11.9290   -7.9352   10.8908
    4.0393  -13.4945    2.2657
   10.4942  -12.2085   11.2998
    2.5538   -7.5233    5.6434
   14.9980   -9.9175    2.6029
    0.5146   -9.2578    2.5690
    7.5257   -4.6706    5.3533
   10.4242   -5.2034    5.4141
    9.8280   -9.9838    6.2327
   18.4732  -12.3925    7.4810
   10.2496  -15.3720    6.0848
    7.2375   -8.5791    1.9265
   12.6416    0.4088    2.9295
    4.5698   -5.2881    2.7233
   12.4540   -8.9877    3.2286
   11.1292  -14.9405    6.0655
    8.2326  -15.5164    6.0221
    7.2008  -12.3851    4.3174
    4.6429  -26.8398    2.0035
    1.5469   -8.1218    4.0225
    8.0920   -4.4043    6.7911
   13.4976   -9.5024    4.6112
    6.7873  -11.4719    9.3210
   17.1309   -3.9120    2.5448
    6.0026  -11.9248    5.8825
   19.6337  -12.6072    8.4541
    6.8852   -5.8331    2.4192
   10.4468   -9.9752    4.8317
   16.4574  -12.8552    1.3558
   15.5503   -6.1375    2.2067
    6.5906  -12.1635    0.6581
   13.3236   -3.2963    2.1958
    4.9854  -12.8323    6.1029
    2.3236  -12.6728    4.2795
   12.9752  -12.8291    6.7491
    2.2166   -8.3969    8.0832
    0.3787   -4.1271    6.0877
    9.7298   -8.3545    7.3264
   16.2356   -6.5256    7.2649
   15.4802   -4.3510   12.0720
    3.2723  -10.5775    7.2716
   10.1678   -5.7312    0.5240
   13.6129  -10.5602    5.8873
   14.3823   -0.5503    7.0022
   17.0233   -8.8287    7.8280
   17.1381  -12.4547    7.4514
   13.8533   -9.5481    3.5243
    3.5898  -13.2981    5.0831
   10.1787  -16.8587    6.0356
    3.7904   -8.4260    5.6472
   15.5488   -8.9521   11.0870
   17.8393   -7.0570    0.1864
    0.9933  -13.8023    7.5670
   13.7597  -13.6230    8.5593
    8.4573  -12.2084    3.2282
    7.8492  -14.5257    6.4870
    5.9990    2.1111    4.7330
   15.6854   -8.3281    1.8997
   11.7244  -12.9391    5.3020
    9.4651   -8.0905   10.0044
   11.8776   -4.4671    3.8026
   14.5595   -6.9508    6.8826
    6.0872   -5.8751    1.6360
    6.4239   -7.8366    2.2350
   13.0983  -16.7822    1.2829
   17.1355  -13.4195    0.6959
   15.6258   -5.2307    2.1724
    9.4798  -10.8914    2.3011
    4.0070   -8.8336    3.6738
   -0.5426   -7.5028    0.0694
    5.8305  -14.5964    3.4794
   15.0831   -9.1445    2.6752
    7.5289  -11.9565    2.6188
   11.2768  -16.6337    4.0495
   10.9575   -8.2305    8.5153
    0.0876  -13.7984    4.9856
   15.6298  -12.2628    6.2631
   19.1112  -16.0265    9.7565
    9.8250  -12.7133    7.0538
   14.4936   -8.0221    5.3882
    6.5920   -2.9282    8.2581
   12.6827  -15.0920   11.6896
   19.5545   -8.4461    3.4491
   15.9028   -7.6448    7.5451
    6.8503   -5.3022    2.5580
    5.4117   -4.3306    1.2546
   10.2390  -14.9765    2.9678
    8.9334   -9.7238    4.7788
    9.7177   -4.4619         0
   15.7200   -7.5470    0.2042
   10.9951   -3.7001    4.8288
   17.4881   -4.5258    6.8017
    9.8067    0.5471    7.3564
    9.4004  -21.7901    6.3120
   13.5694  -11.4933    4.4606
   11.9182  -11.5239    6.5900
    9.0554  -16.4063   12.4786
    2.8533  -12.3456   10.9304
    4.9763   -3.6000    4.8219
   12.7758   -9.7332    9.2433
   12.4456   -5.6774    3.1382
    3.3945   -2.6429    6.0524
   10.5396  -11.3062    5.4333
   12.3821  -11.8433    7.2899
    4.7114  -15.9270    1.3552
    5.5080  -11.2478    6.8728
   15.3732  -13.2161    5.5059
    2.1084  -10.9868    5.9863
   12.0094  -11.0151    1.9142
   14.4013  -13.2776    3.8193
    1.9393  -15.1511    0.3676
    9.4141  -11.6996    2.7984
    4.7114   -9.9342    2.0903
   10.4048  -14.0305    3.9511
    8.1003   -8.4149    5.5077
    2.5708  -10.6486    7.5439
   12.7809  -11.1730    1.7928
   12.6827   -5.8972    5.8809
    7.2170    0.3778    8.2595
   12.3754   -6.1856    7.8839
    3.9506   -7.1079    0.2167
    4.4436   -9.9788    7.1961
    4.8095   -9.4160    4.4937
    9.5080   -7.3836    9.1442
    7.6411  -12.4884    7.7879
   18.6008  -16.7165    3.9535
    9.6800   -8.0690    5.8083
   12.5283  -13.1584    6.5326
   12.5833   -8.2283         0
   11.6728  -13.7374    3.1580
   10.8626  -15.6404    3.8137
   15.5984  -16.3154    1.5657
    4.7613   -8.7350         0
   17.3587   -1.2046    7.5201
   13.0885   -9.0980    3.1586
    4.8273   -7.7927    8.5165
   14.9957   -9.3529    2.1253
   15.3215   -8.9646    7.8594
   17.6830    0.6446    7.1103
    8.1086  -13.5157    6.6797
   17.3772  -10.7150    1.8860
   11.1856  -13.0317    4.4651
    3.4143   -6.7868    3.5902
    6.5072   -8.8516    2.1203
   14.1827  -11.4727    3.6649
   18.0683   -6.6605    0.1365
    4.6758  -14.5257    4.5278
    9.4997   -9.4626    4.4076
    7.0446   -9.0980    2.5059
   18.4588   -2.9177    6.9120
    5.9676   -7.5762    1.8542
   15.9918   -9.8512    4.2555
    7.1894  -16.0379    6.5747
   13.4951  -16.6191    5.6397
    4.0409   -7.3422         0
   16.7512  -13.1508    2.6827
    0.0869  -11.0854    3.7817
   11.4513  -13.9124    3.3400
   11.8945   -9.1828    0.9411
    6.3068   -8.9745    4.8707
    5.6509   -2.1488    4.4971
   12.7421   -1.8196    8.8388
    5.3370   -5.2227    5.3367
    9.8729   -5.1221    7.1164
   -2.6890  -15.2635    4.6088
    0.6353   -4.2590         0
    9.7986  -14.2371    0.5802
   15.0308  -17.1975    2.7458
    2.5772    4.2481    3.6988
   13.0540   -8.5660    6.7291
   12.2245  -12.9832    2.4966
    7.3519   -9.9643    3.1136
    9.8923   -9.6895    5.7676
   19.8609  -19.3151    3.3139
    3.6974  -13.2200    1.3147
   12.1604   -7.6181    3.3379
   10.9340   -9.8401    2.9592
   11.4494  -17.4830    7.0735
    9.9735  -12.2117    5.6658
   11.2663  -10.6753    6.6378
    8.8690   -9.6340    3.6208
    2.3794  -17.5545   11.3501
    7.3719   -8.8510    5.3273
   11.0550   -3.1193    2.2405
   11.1645  -17.1673    1.0292
   12.7165   -8.0254    5.2960
   19.9943   -3.9536    3.7801
    2.5564   -8.2884    0.9443
   13.0618   -7.3492    3.5906
   10.6112  -12.1377    0.1160
    9.8291  -10.8334    7.0473
    6.8809  -15.1512   10.8311
    9.4261  -10.5468    7.2207
   13.0616  -12.4868    4.0305
   11.9180  -12.9611    9.0789
    2.7745   -3.4874    5.8731
   14.0779  -10.5268         0
   11.1228   -7.1653    4.5661
   18.5240   -8.3111    5.2361
    4.9943  -14.5670    6.6867
    6.7508  -18.5044    4.5072
    2.1152  -16.4519    8.5211
   10.0163   -8.7583    1.0148
   14.4781  -11.3554   12.3776
    7.8446   -6.5822    9.0566
    7.6640  -11.7098    4.2597
    8.6740  -15.9504    5.8641
    9.2775   -9.5665    2.3820
   14.6058   -5.0453    2.2077
   10.0715   -8.8056    5.2285
    7.8280  -10.8368    7.9570
   12.8560  -11.8942    7.7775
    3.8600   -4.2935   11.3945
   12.6938   -5.8856    4.0225
    9.0708  -11.9334    4.3310
   19.6271  -16.0588         0
    7.0803  -14.1110    4.0744
   11.9062   -8.5000    5.4383
   10.5304  -14.9166    5.1132
    5.1365  -11.7413    3.0571
   13.9399  -10.5510    1.1378
   -0.0183  -12.9690    3.7670
    1.2425  -12.8101   11.6016
    4.1068  -11.0184    2.2129
   15.8753  -12.4788    5.0080
   14.4279  -16.0402    1.5271
    4.3688   -6.6853    8.4936
    9.1911  -14.1380    7.3593
    6.6547   -5.3423    5.4810
   11.0496  -11.5453    4.8574
   19.4561  -11.3855    9.4366
    6.0550   -4.1699    6.7333
   18.7695   -8.8251    4.9894
    7.9063  -11.8102    5.4100
    7.0664  -13.7213    9.6170
   12.7433  -12.3275    6.4845
   13.1911   -8.2004    5.8066
   11.2591   -6.1879    6.7057
    3.3964   -9.7840    4.7042
    6.8891  -12.2182    2.0383
    6.0941   -8.4905    6.1028
    7.6937   -6.9795    0.1331
    6.4806  -11.8975    2.9176
   11.9161   -3.5059    8.1738
   14.5519  -11.6393    2.9163
    8.8720   -5.9577    5.8103
   12.4941   -5.6425    4.3542
   13.4150   -9.7452    5.8324
   10.6023  -10.3810    6.2708
    8.7735   -6.0760    3.4972
    7.5582  -18.1164         0
    4.7660   -9.8482    8.0635
    8.7692   -9.6889    3.3262
   10.7178   -8.3549    5.8544
    9.1598  -13.9819    7.9087
   10.9806  -16.3458    1.7528
   10.2081  -21.8727    8.7685
   13.0165   -7.5470    7.2235
    7.1627   -5.1490    5.3671
    9.4672  -11.9995    3.9236
   11.0893    0.7070    8.6156
    8.3076  -12.8844    6.3374
   11.2620  -15.9008    6.5970
    2.0150  -10.6556   13.0787
   12.0636   -9.5240    6.6639
   12.0782   -6.9294    8.5296
    9.9947   -9.4553    4.8479
    8.4118  -13.4363   10.4068
    8.0515  -16.8536    4.7147
    2.3285  -12.6401    2.0150
   14.9307  -16.1368    4.9501
   12.8610   -6.7438         0
    5.1077  -10.4663    8.7728
    3.3523  -18.3385    1.4475
    8.2664   -8.3548    5.8449
   13.0638  -14.1508    7.7430
   13.7469   -3.9233    6.4482
   12.4057   -9.7651    6.1207
   13.4561   -8.9685    2.4066
   17.8970  -13.5432    4.8348
    2.3306   -7.6464    7.7912
   12.1128   -9.7079    2.7093
    9.7556   -9.0272    1.2929
    6.6301  -11.4412    2.9040
   13.2254   -7.1048    7.5633
    9.9752  -20.9764    4.1763
   15.4005   -9.2544    5.6686
    5.3469   -5.2831         0
    6.1859  -10.8580    2.6821
   11.9504   -7.3984    2.9016
    6.0061  -12.6797    1.2022
   10.5455   -9.2226    8.5219
    8.1914  -12.6279    8.1197
   14.9351   -4.8474    0.2984
   11.9650   -7.8853    5.7496
    8.1685   -3.8083    2.1033
    7.1259  -10.1879    4.5028
    8.1780  -10.2669    5.1370
   20.7724   -8.5901   10.1287
    9.7767   -3.4822    6.1113
    9.0884  -20.7557    3.0306
    9.1111  -17.5445    7.4941
   16.8234   -4.2996    7.6280
    2.2051   -1.4791    5.4149
   15.0061  -10.9215   11.7267
    6.7632   -3.9078    4.4997
    8.7699   -0.2341    3.6229
   13.0483   -9.1464    6.6386
    5.7860  -12.0499    1.0931
   11.9157  -12.1474    3.7654
    9.6646  -11.1526    3.3798
    3.7054   -6.4060    9.0994
   10.8654  -10.7679    7.1205
   12.6118   -0.8321    6.8227
   12.8704  -11.5286    7.7594
    7.4531  -13.2214    7.6982
    9.9274   -7.5497    5.0982
   12.8005   -8.9411    0.7524
   12.4005   -7.9186         0
    8.2480  -19.4224    5.1133
    4.2775  -10.6750    9.9904
   11.2267  -18.2509    7.4930
   11.4286   -9.1660    8.1430
   16.7427   -6.5575   10.3815
    3.0079   -4.6919    3.5446
    8.4057   -6.6116    3.0991
   11.9540   -7.8217    8.3057
    9.5433   -6.5105    2.8489
   19.1295  -10.2550   11.6001
    8.3475  -10.1733    7.6719
   -0.6370   -5.4080    3.0937
   13.2844   -5.1072    3.8795
    3.7044  -12.1187    6.5656
   15.9170  -18.0878    7.1387
   11.8172  -20.3290    8.5052
    8.4513  -17.3016    6.0199
    5.5897  -14.5003    1.9558
   18.3581   -7.9880    5.2794
   11.3929  -13.4913    0.3914
    7.7990  -10.3840    6.7287
    6.8730   -8.3377    6.7162
    9.1882  -16.2379    5.4400
   15.6533  -13.8261    2.2228
   18.5983  -13.3722    8.8194
   10.1224  -13.6081    7.9638
   11.9221  -11.9766    2.8644
   11.4551   -6.4577    0.9971
    2.5796  -12.2836    8.0127
   10.6315   -6.8756    6.8255
    7.7588   -8.4685    5.1078
    8.0750   -9.1366    5.7661
    9.3211   -5.6124    7.0915
   -3.0086   -0.3693    3.7065
    6.6946   -3.3970    9.6617
   13.4030  -17.1282    6.0400
   10.5436   -7.6154    2.7005
    7.6784  -15.6108    3.5196
    8.4661  -19.0486    9.5136
    5.1400  -15.4482    3.0504
    6.8617  -19.8186    1.8185
    7.3765  -15.0907    8.4642
    9.1624   -3.9057    5.9578
   12.6458  -12.1442   11.6106
    9.9053    2.0632    4.1963
    9.6411   -8.2413    6.9142
    6.2402   -5.4820    4.9419
   14.4038  -10.6570    6.2968
   11.0597  -11.2581    0.2308
   12.5472  -13.5252    5.7490
   10.9868   -9.2763    7.2893
   13.6347  -16.6732    4.9828
   16.8064  -13.8253    3.9209
    8.0576  -14.8115    5.0777
   12.4415   -9.2425         0
   13.0568   -3.1784    8.7256
    9.9605   -0.2911    6.0264
   18.6037  -17.9007    6.6518
    5.5962   -8.4396    6.9641
    7.8124  -12.9435    5.8604
   10.3505  -14.8667    9.2551
   10.1179   -9.5348    1.6432
    8.9975  -12.1234    4.7759
    7.8413   -9.7700    8.2524
   13.7106   -6.5417    4.9564
    9.7282  -14.2097    6.9288
    6.3696  -10.6872    0.1404
   17.7078  -17.6516    6.0462
   14.1047  -11.7246    8.2502
   16.6998   -5.5502         0
    9.8796  -17.8556    4.2931
   18.6212   -8.2412    1.2405
   14.1385  -16.0840    1.9094
    1.8636   -9.0145    6.7785
    4.3061  -12.0263    8.2708
   12.6263  -11.2534    4.3716
    9.4772  -17.2175    3.4423
    9.3528  -14.0998   10.4067
   14.8365  -10.8686    4.7416
   17.6599   -9.6774    6.1418
   11.7606  -10.8609    3.9562
   10.5730  -12.8855    6.5220
   20.1292   -4.0215    1.3335
    9.9519  -10.8751    5.0647
    7.9725  -13.4915    2.3429
    7.3223  -13.4139    4.4251
    6.6895  -10.3402    7.0685
   10.3676   -5.8195   10.8780
    6.1261  -11.9106    3.6439
    1.6372   -6.0780    6.5998
    4.2180   -8.9806    3.6288
   11.9629  -12.5350    5.2683
   14.9108  -13.6775   13.3478
   15.4117   -9.2020    5.5440
   20.4079  -10.4650    3.2092
    5.1221  -14.0725    8.0067
   16.1404  -13.5745    7.7744
   10.3676   -7.5739    0.4350
    7.8950   -7.6525    3.0797
    8.0813  -11.4013    3.6560
   14.0033   -6.2824    4.2390
   12.9239  -11.5747    5.3147
    1.8722  -10.5198    3.3189
   14.6111   -4.4433    6.3003
   13.7135  -12.4296    6.4123
    8.9365  -19.1933    2.4723
    5.5843  -15.8000    6.1278
    6.5369   -8.6912    1.6344
    4.4374  -10.9711    7.4747
    9.7740    2.3810    4.3585
    8.2510  -16.3678    7.1601
    8.5962  -11.0974    2.0196
   10.9961   -9.8189    7.3456
    8.6620  -16.1822    4.1712
    2.3626   -5.1437    4.7821
    7.3058   -6.6523    4.1848
    7.6449   -3.0571    7.0137
    2.2788   -6.9062   10.4082
   13.9856  -25.9758    7.6883
    0.2501  -14.3517    5.0883
   11.8996   -8.5969    2.7573
    8.6734  -13.6678    5.2521
    8.3609   -8.7248    2.0071
   12.9145  -10.2981    4.7379
    8.6341  -12.4637    7.8262
    8.9792   -9.6937    4.7375
    6.0779   -7.6916    8.5783
   15.0659   -4.8561    3.5055
   14.4623  -14.0228    6.3126
   13.0890  -12.5730    5.9901
   12.3906  -13.2429    0.7996
   13.2690   -6.1845    3.4344
   13.1241   -2.9232    8.0148
   11.7735   -5.2493    1.5866
   12.8423   -3.9654    4.5403
    6.8090   -8.8783    2.0773
   10.1321  -13.6077    2.0615
   12.4767   -6.9411    2.2356
    6.7353   -2.2313    7.4694
   10.0034   -7.7227    5.0197
    9.1562   -5.8185    6.1224
   15.5864  -16.9457    3.3344
   12.1262   -7.4302    4.6261
   14.9251  -10.6926    7.5109
   12.8020   -7.5100    1.1376
   14.5416   -4.2545    2.7245
    9.5748  -12.8774    8.0617
   10.5182   -3.2233   10.0833
    7.1733  -14.2453    2.4104
   11.7441   -9.8163    6.3178
   23.8342   -8.6187    1.2594
   10.4391   -5.1993    6.9731
    9.7948  -11.4542    5.3994
   13.8622  -14.2114    1.9586
    2.9637   -3.6252    6.5269
   15.0770   -8.3681    8.7935
    6.1859  -18.6116    4.5272
   12.5538   -8.5603    2.3041
   11.2447  -17.6526    1.6461
    9.6984   -6.4409    1.2743
    6.7722   -3.7578    6.1954
   11.8779  -10.8225    6.0182
   15.0605  -14.0878    2.6493
   13.0719   -4.4788    7.2621
   16.2824  -12.2982    1.8032
    3.7513  -13.6831    9.4621
   10.0867  -15.6780         0
    3.9234  -16.6044    4.1787
   10.5159   -8.7590    7.2599
   12.4373  -11.4929    5.0368
    6.5455   -6.4518    5.1472
   15.7727  -10.2551    3.4744
    7.8631  -10.9436   10.8958
   12.8054  -17.7466    3.6190
    8.4354  -13.4896    7.0940
    6.5875   -9.5301    8.6338
    6.6828  -11.9267    3.9807
    3.4703   -4.2623    9.3459
   16.8434  -18.2414    6.3317
   -1.0126  -10.8154    0.5366
    4.1948   -9.4844    3.5862
    1.0694  -13.2506    4.5644
    3.9567   -9.4960    6.9138
   -2.5633   -2.5243    7.1381
   12.7098  -14.7267    7.0912
   10.1820  -11.5790    0.6590
    5.3609  -16.3859    0.4227
    4.1456   -6.7243    9.0365
    4.0691  -15.4272    7.4703
    8.7470  -13.8619    6.2366
    0.9006   -3.5967    9.6386
   11.8303   -6.2946   10.5408
    9.5958  -13.4019    2.6831
    8.4598   -5.4256    5.1257
   12.9350  -12.9659    6.2932
   11.5559   -9.5229    5.3611
    8.4489   -1.7453    5.6084
   10.1385    0.1572    5.5825
    9.3999  -11.9942    8.2597
    7.1828  -10.1350         0
   15.0015   -5.3241    4.9823
   15.4097   -7.2662    4.2487
   10.3257  -11.0486    3.5939
    5.3796  -10.9426    5.4320
    4.7216  -13.5281    6.6026
   11.1295  -20.2239    4.1452
    8.8092  -10.7049    5.0544
    6.3406  -15.3904    0.0502
   10.5941  -11.0257    1.6571
    4.6691    1.1073    3.8801
   11.5319   -9.8475    4.4889
    2.8356   -3.2071    1.7991
   -1.0419  -14.9982    1.4581
    9.0635   -4.2599    6.8388
    5.5813  -17.5313    5.4045
   16.8900  -11.2597    9.1307
   16.1770   -8.6916    6.6372
    7.2455   -7.2095    1.5031
    5.6497  -10.5592         0
    9.0262  -14.8700    5.4177
    8.5776  -15.4795    4.3186
   16.2339  -13.2497    6.6637
    8.4327  -14.5862    7.7419
   15.4248  -12.6059    4.3994
   15.5676  -14.2774    5.4464
   21.3388   -4.4107    2.8359
    8.2925   -8.7854    8.6039
    7.8613   -8.7244    5.1557
   17.5408  -13.7754    3.4022
    6.6773   -8.7543    3.6276
    1.8302   -8.5464   10.4548
   10.3903  -14.2122    6.5239
   12.2512  -15.3513    6.2613
    8.3666  -18.7072    6.0108
    8.4219   -6.0724    6.3630
    3.8669  -14.5547    6.4168
   17.7526   -9.7897    5.0191
   10.9062   -9.6260   10.1348
    7.5354   -9.5895    4.2817
   11.8082  -12.8719    2.4697
   13.7548  -11.0186    3.7617
    5.2827  -11.3811    8.5489
   11.0137   -3.9269    7.3446
    7.8293  -15.2028    8.5159
   17.4282  -10.9266    4.3575
   10.7152   -5.2012    5.4528
    4.9389   -8.1052         0
    9.5002  -14.8969    7.8368
   12.0207   -6.4308    4.6775
   19.4526  -22.1583    5.1681
   10.1781  -12.2167    8.0405
   12.5721   -2.9451    4.1799
   15.4033   -7.7569    6.2925
   12.2895   -6.4378    2.8465
    6.0861  -10.4183    3.4045
    9.2752  -11.7110    6.6250
    7.0398   -6.8684    4.3647
   13.1804    0.4268    0.3030
   16.9314  -11.2078    3.3864
    9.9013   -3.5334   13.7285
   14.7464  -12.4269    6.4785
    6.8646  -11.9353    5.6453
   10.7169   -7.0717    3.7730
    9.2059  -14.0592         0
   17.3362   -5.7598    5.4068
   11.3228  -17.5747         0
   13.4547  -20.8934    2.2299
    8.4647  -10.7151    0.6346
    7.1497   -8.5200    4.3601
   11.7762   -4.2607    8.2209
    6.3170   -9.4615    6.5478
    3.8722   -5.7051    3.6690
    8.6405   -8.9175    0.1204
   17.1963   -6.9423    3.4005
    8.2346  -14.3595    1.4433
   10.9937  -10.3438    6.2884
    7.3283  -12.6901    3.2431
    0.7732  -11.0665    9.2502
   10.0019    0.3349    4.6479
   17.6215  -16.3187    0.4434
    8.5081   -9.8462    5.2377
    4.8243  -11.4441    7.1521
    5.5420   -8.2928    3.5122
   11.6389   -1.9329    6.8532
    8.1085   -5.8946    6.0179
   14.4263  -12.9561    6.1533
    8.7591  -16.4519    4.0204
    0.6151   -6.1840    4.6171
    8.0224  -14.4645    4.5972
   13.2037  -13.2187    4.6146
   14.6191   -7.9059    0.6328
   15.7822  -16.8510    4.9452
   14.5032   -2.9969    1.4287
   14.8303   -9.5373    5.3838
   18.5231  -11.0534    1.5007
   16.9049   -6.3648    9.0883
   10.7901   -6.3720    7.4629
    7.8575  -11.1213    3.3824
    8.7411   -5.0395   11.1938
   13.1618   -8.3471    8.4181
   15.4368   -5.0500    7.5602
    8.8860   -8.8144         0
   16.8070  -10.8599    1.2027
    6.7377   -2.1306    2.8932
    7.9060  -13.5244    4.0169
    8.2587   -7.1511    1.0653
    7.0212   -0.8992    6.9652
   13.9146  -11.8601    3.4319
    9.1581   -7.1441    4.5039
   18.3319   -8.5620    3.3544
    9.9724  -11.5671    4.7352
   18.3983  -10.0160    9.1165
   -0.9349   -7.2200         0
   11.6282    0.4782    2.1156
   11.2757   -6.0111    3.5873
   18.7084  -11.0984    6.6642
   11.1778  -18.8790    1.9307
   18.0062   -8.8792    3.4257
   18.5173   -8.8256    7.1105
    7.2086  -13.5617    1.3162
    4.6420   -5.4580    8.1428
   13.8619   -8.2411    6.0265
    6.3322   -7.3589    6.7097
    9.2928  -12.1878    4.9553
    7.4295  -13.0773    2.0076
   10.4536  -12.1034    0.2014
   12.6839  -14.9976    5.4601
   13.2049  -12.3514    7.1467
   10.6104   -6.7292    7.1726
    5.7389  -20.1491    4.7419
    6.1888  -17.9739    9.9444
   11.3154   -9.8803    5.5551
    0.1706   -8.5218    3.7910
    4.7150  -14.2697    5.3157
    2.9540   -7.5860    3.1521
    8.5242   -4.3344    7.0626
   12.1835   -6.9232    9.6703
   20.6414  -17.0353    8.1203
    9.9814  -13.2875    5.7448
    5.1956  -13.8421    0.9176
    7.9590  -11.5244    3.0900
   12.0620  -13.0208    6.2091
   14.5983  -13.7873    4.7702
    7.9342   -1.4054    9.1473
    9.9793  -11.4984    6.9826
   15.3364  -10.6859    0.6989
   11.0068   -8.7114    6.8989
   10.3618  -17.7950    7.0058
    8.5102  -15.1373   10.2521
    8.2692   -7.8856    5.2560
   14.7610   -8.4187    5.7890
    7.6075  -15.2246    0.2738
    9.7873   -4.9345    3.6190
    5.3478  -10.3003    0.5194
   12.7169   -9.3624    4.5561
   11.1213   -9.5082    2.6616
   11.9869  -12.4749    1.1358
    9.8788  -18.2408    4.9865
    6.6606  -10.5889    2.4779
    9.6161  -17.0424    8.8033
    4.2215  -10.7410   11.6822
    8.4763   -9.0669    5.4580
   20.3824   -9.1092    5.8468
   17.5254  -16.2382         0
   13.9050   -8.3503    9.4922
   11.9713  -15.4471    3.1285
   13.7195   -8.8675    6.1727
   11.7528   -7.2856    4.3961
   14.1929   -2.8072    6.0307
   15.4259  -19.2286    4.7408
    5.4043   -6.2683    5.3921
    9.1405  -10.7297    1.8078
    9.8778  -10.3389    5.3981
    7.5020  -12.5308    0.5349
    5.5262   -8.9463    4.6743
   15.7245  -11.1638    5.5478
   13.0052  -12.7844    4.1647
    5.9015  -12.4237    5.9772
    5.2629   -7.2267    7.6550
   11.9224   -7.7877    0.2180
    6.9002   -5.0472    0.6339
    4.6077   -8.3667    3.1407
    8.8864  -10.6565    6.2846
    6.1987  -15.1227    6.0371
   13.8233   -8.5835    3.9340
   20.3796  -11.3796    6.7403
    2.3457   -9.0032   11.2363
   13.7688   -6.0644    1.7629
   11.9009  -12.2178    2.4617
    6.2085  -12.1702         0
   14.3275  -11.1664    5.4008
    6.0023   -9.0433    7.3844
    1.5299   -0.8338    3.8855
    4.9451  -13.9280    8.2701
   12.6017   -3.9703    4.3053
   11.8464  -10.9694    5.7311
   14.5119   -5.9595    8.0417
   12.2085   -9.7313    6.7637
   15.6716  -12.4040    5.9471
    0.9783  -11.1664    9.2794
    8.6297   -5.6851    2.2578
    8.3656   -4.2995    3.6058
    9.7395   -5.6754    5.8886
   14.8023  -12.5369    3.9289
    6.9561  -15.7997    3.3084
   11.1360   -8.1961    7.1611
    1.4020   -7.6241    3.4771
    5.8809  -21.3065    6.1852
   14.2307   -9.8910    4.4499
    2.1544   -0.5700    3.6926
   16.3668  -10.8480    6.3718
    7.8215  -12.8989    5.8733
   12.3750  -14.5349         0
    4.7067  -18.1493    3.9828
   13.3966  -12.2025    1.7642
    9.9937   -8.6436    5.3357
   15.6433  -14.4276    2.8476
    7.5397   -8.8594    4.9575
    6.6909   -6.4541    8.7607
    6.5976  -12.6698   10.1053
   18.8862   -7.7851    7.3956
    8.5163   -7.4553    0.2056
    2.7594  -10.1926    9.4016
   14.2686   -1.1960    8.2252
   10.1123  -15.7249    5.7603
    8.3986   -8.7622   12.2914
   12.3257  -14.1703    3.6171
   13.9937  -13.2479   10.3810
    7.1327   -8.0156    1.6805
   10.4990   -5.0820    3.8083
    8.6021   -9.2345    1.4823
    7.3985   -4.1282    6.6878
   12.1399  -14.1856    6.0918
   13.2462   -8.4783    3.0463
    3.8344  -12.3890    0.7791
   14.9956  -13.4081         0
   10.6698  -21.8420    2.1391
    8.9378   -6.5792    0.6964
    2.8518   -1.5632    6.9833
    8.8425   -7.7516    8.2323
    9.6870   -3.8065         0
   10.4671   -9.7346         0
    8.0357  -15.5369    3.5632
   14.1674  -13.9261    7.8420
   17.0561  -13.6120    8.7596
   15.5963   -5.0393    9.4114
    8.9625  -12.1616    3.8108
   11.5102   -9.5885    3.0272
   11.8302  -15.9992    1.8987
    7.2019  -10.8238    6.6528
    9.9483  -17.3164    7.2944
    7.3463  -13.1609    0.4096
   10.3094   -6.5823    4.5805
   17.2452   -2.3066    3.4061
    9.1583   -7.8155    6.8065
    6.7116   -9.5624    8.4317
   16.1985   -5.1703    8.5985
   13.9288   -6.7239    6.4625
    7.6357  -21.0199    3.7438
    6.6835  -18.0620    3.5670
   16.3490  -13.7501    1.4770
   10.1412  -13.9312    8.4930
   10.8336  -17.2010    2.3049
   11.5718  -13.0521         0
    7.1692  -14.1903    2.5190
   14.9000   -5.0490    9.3532
   20.5891  -12.7449    5.7585
   -1.1952  -15.7421    3.8997
   10.8908  -11.8732    5.6129
   14.2541  -13.0824    6.1653
    6.4187   -8.8203    6.3138
   10.4038  -11.0408    4.4592
   10.7677  -16.6848   11.8533
    7.3011   -7.3885    8.1747
   13.1796  -11.6378         0
   15.4668  -12.7001    2.1458
   11.0045  -13.8331    4.9025
   11.6635   -6.4275    6.4915
    7.5407  -10.4902    4.1457
   15.0332  -16.9877    4.8624
    9.5938   -0.2314    4.0253
   11.9830  -11.5376    1.0509
   15.2864   -8.7802   11.3893
    8.6624   -8.4033    4.4116
    9.1262  -15.8794   11.9740
   10.4075   -4.5049    2.3293
    8.9951   -8.8700    4.2284
    4.2898   -9.3536    1.0735
   12.1708   -3.9221    2.4332
    3.5131   -9.2841    7.7061
    8.6300  -17.7503    7.2673
    3.6622  -10.0723    2.3736
   15.8565   -4.7485    5.4529
   10.3843   -4.5432    3.6788
   12.1553   -8.8090    7.4829
    8.8172  -17.6206    2.6920
   17.1408   -5.0660    9.6673
    8.1821  -10.2582    0.3489
   15.1827   -9.1365    5.8722
   15.1891   -4.2343    0.4609
    7.6348   -8.1876    2.8230
   11.9321  -26.7500    1.7732
   10.5697  -17.4868    9.6465
   19.5175  -13.7260    4.5124
    5.5260  -15.8108    5.9775
    2.8695   -9.3094    0.6743
   11.3988   -9.3162    2.1198
    5.6368  -13.1190    6.0427
    7.3488   -4.7374    4.6906
   11.4915  -13.5464    6.9819
    4.1588  -11.5552    8.4713
   14.8227  -13.0032    2.2418
   11.8963  -14.0341    2.0884
   16.4008   -9.7542    6.3683
    8.5967  -16.2737    4.6376
   14.1086  -11.4049    5.0387
    4.9649   -6.2635    2.3433
   11.0838   -6.3380    2.1542
   15.0554  -18.7573    6.3404
    7.0831   -8.1698    9.6804
   10.3932  -12.0609    3.9605
   17.3561   -7.9726    8.3245
    6.4697   -9.2255    9.1091
    5.0032  -11.4224    8.2160
   14.2013  -10.0599    9.5492
    9.8943   -7.2644    6.0763
    5.0469   -6.7329    0.1573
    5.9783  -13.3736    2.5287
   11.5582  -15.9731    4.5363
   11.1020  -11.8857    0.6442
    8.4179   -5.4100    3.4274
   11.0308   -8.4573    8.8241
   12.5399   -8.2270    2.6586
    6.7106  -11.9914    5.6089
    8.5611  -13.4455    5.8439
    6.7345   -0.6534   10.5357
   16.0295  -10.4732    4.2445
    4.2459  -10.1496    6.9361
   17.2635  -11.2316    1.3060
    7.4360   -9.6863    2.3686
    9.9909  -11.4378    5.9796
   14.3089  -14.6990    6.5731
   13.3200   -7.7818    3.5835
    8.4637   -3.5210    5.8242
   13.9986   -9.1681    2.9818
    4.6912  -13.3487    6.7227
   16.2166   -9.7461    2.8930
   15.2220   -5.4086    5.7539
   10.0833   -1.9759    6.0572
   11.8175  -16.3236    9.2986
   14.4078   -9.4870    1.6716
    8.5252  -11.9498    5.6413
   12.4543   -7.5493         0
   13.0924   -9.2399    5.3805
   11.6738  -12.6488    7.3529
    3.6076  -18.1323    1.7985
    8.4895  -15.4638    4.3846
    1.1069  -12.7288    8.6859
    8.2764  -11.2317    9.9674
    6.4456   -4.7092    5.0061
    9.5678  -12.6756    9.4575
   11.6983   -8.3258    4.5243
   13.7351   -5.9238    2.3782
    9.3558   -8.9575    4.6885
   10.1806   -9.6184         0
   14.5598  -12.7475    2.5212
   15.8352   -6.2141    3.1363
   10.9792   -2.6712    9.1353
   13.8757   -7.8601    5.6677
    6.7154   -8.6171   11.1324
   17.1353   -8.9408    6.3354
    7.0175   -5.3468    6.0609
    6.5461  -11.4890    4.3288
   12.4216  -12.3049    2.3254
    9.7060   -7.6066    5.5084
    2.8608  -11.3792    3.8716
   14.8486   -5.9868    0.3282
   13.1284  -16.5874    6.5448
   17.4143   -4.0314    4.5050
   11.3268  -13.2878    5.7860
   13.1724   -8.9265    3.4388
    4.8185  -12.1055    7.0562
   18.3676   -6.7889    3.2044
   20.6716  -16.3787    6.0674
    8.2841  -14.8028    7.0046
    6.8735   -2.6543    4.6239
   14.5005  -14.3893    2.2389
    4.8912  -13.1426    5.7159
   10.6912   -9.7196    8.2316
    9.3933  -13.5942         0
   13.7198   -9.3398    5.3420
    1.1402   -4.7083    5.4234
   10.5555   -9.6909    6.0499
   11.1786   -2.2322    3.8640
    2.0301  -16.5238    6.0145
    9.2852  -11.2809    3.3377
   12.8313  -13.9332    5.7659
    4.2590   -8.3417    8.4444
    8.6498  -15.6775    4.7277
   10.8858  -17.9182    1.7623
    7.6484  -11.7709    4.6899
   17.0793  -18.1677    6.3023
   13.4625  -14.0415    4.1893
    7.3956  -12.4629    9.9838
   11.4923  -17.5168    3.6765
   15.0797   -7.4624    3.7248
   11.1170   -8.6247    9.8890
   12.5062  -12.8222    5.8959
   12.8941  -16.2655    6.6059
   13.3262  -11.2388    9.0009
    4.0476  -10.7553    3.0344
    6.9544  -19.7783    4.4429
    8.4120   -4.1166    7.6085
    2.8116   -8.0401    2.6100
    3.6915  -17.8910    5.7166
   11.6094   -1.0986    1.5098
   11.6151  -10.6910    6.5280
   14.1607  -16.6303   11.7070